Time(s),Voltage(V)
0,4.20
30,4.19
60,4.18
90,4.17
120,4.16
150,4.15
180,4.14
210,4.13
240,4.12
270,4.11
300,4.10
330,4.08
360,4.06
390,4.04
420,4.02
450,4.00
480,3.98
510,3.96
540,3.94
570,3.92
600,3.90
630,3.88
660,3.86
690,3.84
720,3.82
750,3.80
780,3.78
810,3.76
840,3.74
870,3.72
900,3.70
930,3.68
960,3.66
990,3.64
1020,3.62
1050,3.60
1080,3.58
1110,3.56
1140,3.54
1170,3.52
1200,3.50