Time(s),Voltage(V)
0,3.65
30,3.64
60,3.63
90,3.62
120,3.61
150,3.60
180,3.59
210,3.58
240,3.57
270,3.56
300,3.55
330,3.53
360,3.51
390,3.49
420,3.47
450,3.45
480,3.43
510,3.41
540,3.39
570,3.37
600,3.35
630,3.33
660,3.31
690,3.29
720,3.27
750,3.25
780,3.23
810,3.21
840,3.19
870,3.17
900,3.15
930,3.13
960,3.11
990,3.09
1020,3.07
1050,3.05
1080,3.04
1110,3.03
1140,3.02
1170,3.01
1200,3.00